 -52.38
 -49.37
 -46.35
 -43.34
 -40.32
 -37.36
 -34.39
 -31.43
 -28.46
 -25.49
 -22.19
 -18.90
 -15.60
 -12.30
  -9.00
  -6.23
  -3.45
  -0.68
   2.10
   4.87
   7.65
  10.52
  13.40
  16.28
  19.15
  22.03
  24.91
  27.98
  31.04
  34.11
  37.18
  40.24
  43.33
  46.41
  49.50
