  -0.0174206  -0.9998482   0.9998482  -0.0174206     -57.575       5.500
  -0.0170536  -1.0004961   1.0004961  -0.0170536     -50.539       8.374
  -0.0157970  -0.9980319   0.9980319  -0.0157970     -33.745      -1.678
  -0.0128091  -1.0000051   1.0000051  -0.0128091     -24.614       8.151
  -0.0125750  -0.9991172   0.9991171  -0.0125750     -10.352      10.389
  -0.0127364  -0.9985550   0.9985550  -0.0127364       1.282       6.664
  -0.0126856  -0.9982465   0.9982466  -0.0126856      -0.546       0.894
  -0.0127929  -0.9984135   0.9984136  -0.0127929       9.438       0.601
  -0.0123867  -0.9965684   0.9965684  -0.0123867      19.408       6.668
  -0.0130368  -0.9962897   0.9962897  -0.0130368      17.556       5.328
  -0.0112003  -0.9990480   0.9990479  -0.0112003      12.077       0.105
  -0.0126438  -0.9986640   0.9986640  -0.0126438      24.160       6.792
  -0.0136851  -0.9992905   0.9992905  -0.0136851      11.813      -3.696
  -0.0152311  -0.9986907   0.9986907  -0.0152311      12.536       1.158
  -0.0154517  -0.9980659   0.9980660  -0.0154517       1.889      -6.412
  -0.0169103  -0.9982268   0.9982268  -0.0169103      -5.091       4.385
  -0.0151995  -0.9966948   0.9966948  -0.0151995     -38.336       4.823
  -0.0139747  -0.9979936   0.9979936  -0.0139747      23.105      -0.349
  -0.0142653  -0.9974879   0.9974879  -0.0142653       2.361      14.248
  -0.0140225  -0.9979398   0.9979398  -0.0140225      21.872     -12.261
  -0.0148061  -0.9982342   0.9982342  -0.0148061      16.634       8.883
  -0.0148563  -0.9993948   0.9993948  -0.0148563      22.245      -0.261
  -0.0153203  -0.9977112   0.9977112  -0.0153203      11.046      38.253
  -0.0154344  -0.9974538   0.9974537  -0.0154344      25.215      -1.990
  -0.0171821  -0.9983345   0.9983345  -0.0171821      12.332      -2.549
  -0.0152879  -0.9980437   0.9980437  -0.0152879     122.375     -19.648
  -0.0146674  -0.9977456   0.9977455  -0.0146674      18.804      -0.900
  -0.0151158  -0.9981878   0.9981878  -0.0151158       8.466       0.085
  -0.0136784  -0.9968113   0.9968113  -0.0136784       5.060      -3.025
  -0.0137902  -0.9967172   0.9967172  -0.0137902      45.450       1.254
  -0.0149213  -0.9978521   0.9978521  -0.0149213      68.958     -14.321
  -0.0151931  -0.9961061   0.9961060  -0.0151931     -12.557     -11.795
  -0.0141878  -0.9965017   0.9965017  -0.0141878      14.893     -13.210
  -0.0144583  -0.9934744   0.9934745  -0.0144583    -120.900     -38.101
  -0.0142994  -0.9984373   0.9984373  -0.0142994     -12.014      -2.162
